time	Temp	HeatFlow
s	°C	mW
2	71.10	1.80713
3	70.97	1.88838
4	70.86	1.94845
5	70.81	1.95816
6	70.84	1.89810
7	70.97	1.76473
8	71.20	1.56247
9	71.56	1.30279
10	72.03	0.99984
11	72.61	0.66597
12	73.30	0.31444
13	74.09	-0.0450
14	74.98	-0.4045
15	75.95	-0.7561
16	77.00	-1.0952
17	78.11	-1.4123
18	79.29	-1.7064
19	80.52	-1.9785
20	81.79	-2.2258
21	83.10	-2.4519
22	84.46	-2.6559
23	85.84	-2.8388
24	87.25	-3.0022
25	88.67	-3.1435
26	90.09	-3.2512
27	91.49	-3.3131
28	92.84	-3.3201
29	94.14	-3.2742
30	95.38	-3.1815
31	96.57	-3.0507
32	97.68	-2.8944
33	98.73	-2.7204
34	99.72	-2.5349
35	100.66	-2.3462
36	101.54	-2.1584
37	102.37	-1.9758
38	103.16	-1.8002
39	103.92	-1.6360
40	104.64	-1.4824
41	105.33	-1.3403
42	105.99	-1.2113
43	106.63	-1.0956
44	107.25	-0.9914
45	107.86	-0.8995
46	108.46	-0.8183
47	109.04	-0.7458
48	109.62	-0.6840
49	110.18	-0.6310
50	110.75	-0.5859
51	111.32	-0.5479
52	111.87	-0.5143
53	112.43	-0.4834
54	112.99	-0.4587
55	113.55	-0.4401
56	114.09	-0.4234
57	114.64	-0.4101
58	115.19	-0.3987
59	115.74	-0.3899
60	116.29	-0.3819
61	116.84	-0.3758
62	117.38	-0.3723
63	117.92	-0.3688
64	118.46	-0.3662
65	119.01	-0.3653
66	119.56	-0.3654
67	120.10	-0.3663
68	120.65	-0.3682
69	121.19	-0.3682
70	121.74	-0.3692
71	122.28	-0.3710
72	122.82	-0.3711
73	123.37	-0.3729
74	123.91	-0.3783
75	124.45	-0.3810
76	125.00	-0.3846
77	125.54	-0.3891
78	126.08	-0.3927
79	126.63	-0.3981
80	127.17	-0.4044
81	127.72	-0.4098
82	128.27	-0.4152
83	128.81	-0.4197
84	129.35	-0.4251
85	129.89	-0.4306
86	130.43	-0.4369
87	130.98	-0.4432
88	131.52	-0.4504
89	132.06	-0.4576
90	132.60	-0.4639
91	133.15	-0.4711
92	133.69	-0.4792
93	134.23	-0.4864
94	134.78	-0.4936
95	135.32	-0.5017
96	135.87	-0.5107
97	136.42	-0.5224
98	136.97	-0.5341
99	137.52	-0.5449
100	138.07	-0.5557
101	138.63	-0.5666
102	139.17	-0.5783
103	139.72	-0.5909
104	140.27	-0.6026
105	140.82	-0.6135
106	141.38	-0.6252
107	141.93	-0.6378
108	142.48	-0.6496
109	143.03	-0.6631
110	143.58	-0.6758
111	144.14	-0.6885
112	144.69	-0.7020
113	145.24	-0.7156
114	145.80	-0.7310
115	146.35	-0.7454
116	146.90	-0.7599
117	147.46	-0.7744
118	148.01	-0.7898
119	148.56	-0.8035
120	149.11	-0.8189
121	149.67	-0.8334
122	150.23	-0.8497
123	150.78	-0.8652
124	151.34	-0.8806
125	151.89	-0.8961
126	152.45	-0.9116
127	153.01	-0.9261
128	153.57	-0.9407
129	154.12	-0.9562
130	154.68	-0.9708
131	155.24	-0.9864
132	155.79	-1.0019
133	156.34	-1.0156
134	156.90	-1.0312
135	157.45	-1.0467
136	158.01	-1.0614
137	158.58	-1.0769
138	159.13	-1.0916
139	159.68	-1.1054
140	160.24	-1.1183
141	160.80	-1.1312
142	161.36	-1.1459
143	161.92	-1.1598
144	162.48	-1.1727
145	163.04	-1.1848
146	163.59	-1.1959
147	164.15	-1.2062
148	164.72	-1.2155
149	165.28	-1.2240
150	165.84	-1.2334
151	166.40	-1.2428
152	166.95	-1.2512
153	167.51	-1.2579
154	168.07	-1.2655
155	168.64	-1.2731
156	169.19	-1.2798
157	169.75	-1.2874
158	170.31	-1.2951
159	170.87	-1.3009
160	171.44	-1.3076
161	172.00	-1.3134
162	172.56	-1.3202
163	173.12	-1.3278
164	173.68	-1.3364
165	174.24	-1.3423
166	174.81	-1.3481
167	175.37	-1.3558
168	175.93	-1.3617
169	176.49	-1.3675
170	177.06	-1.3743
171	177.62	-1.3811
172	178.18	-1.3898
173	178.75	-1.3975
174	179.31	-1.4061
175	179.87	-1.4157
176	180.43	-1.4234
177	181.00	-1.4330
178	181.57	-1.4417
179	182.13	-1.4522
180	182.69	-1.4645
181	183.26	-1.4759
182	183.83	-1.4874
183	184.39	-1.4988
184	184.96	-1.5121
185	185.53	-1.5236
186	186.09	-1.5342
187	186.67	-1.5448
188	187.24	-1.5563
189	187.80	-1.5687
190	188.37	-1.5820
191	188.93	-1.5954
192	189.50	-1.6088
193	190.07	-1.6222
194	190.64	-1.6347
195	191.21	-1.6481
196	191.78	-1.6624
197	192.36	-1.6768
198	192.93	-1.6921
199	193.49	-1.7055
200	194.07	-1.7190
201	194.64	-1.7334
202	195.21	-1.7479
203	195.78	-1.7614
204	196.35	-1.7749
205	196.92	-1.7875
206	197.50	-1.8029
207	198.07	-1.8202
208	198.64	-1.8356
209	199.22	-1.8511
210	199.79	-1.8656
211	200.36	-1.8811
212	200.94	-1.8975
213	201.52	-1.9130
214	202.09	-1.9294
215	202.66	-1.9468
216	203.24	-1.9633
217	203.82	-1.9807
218	204.39	-1.9972
219	204.97	-2.0156
220	205.55	-2.0331
221	206.12	-2.0515
222	206.69	-2.0717
223	207.27	-2.0939
224	207.85	-2.1161
225	208.42	-2.1410
226	208.99	-2.1679
227	209.56	-2.2012
228	210.12	-2.2550
229	210.68	-2.3673
230	211.22	-2.6079
231	211.74	-3.0233
232	212.24	-3.6462
233	212.71	-4.4805
234	213.15	-5.4864
235	213.58	-6.6186
236	213.99	-7.8332
237	214.39	-9.0867
238	214.79	-10.342
239	215.18	-11.575
240	215.58	-12.758
241	215.99	-13.856
242	216.41	-14.835
243	216.85	-15.639
244	217.33	-16.150
245	217.88	-16.214
246	218.48	-15.828
247	219.15	-15.035
248	219.87	-13.853
249	220.63	-12.503
250	221.38	-11.221
251	222.12	-10.091
252	222.83	-9.1157
253	223.54	-8.2789
254	224.23	-7.5631
255	224.90	-6.9514
256	225.56	-6.4293
257	226.22	-5.9845
258	226.86	-5.6050
259	227.50	-5.2797
260	228.14	-5.0049
261	228.77	-4.7739
262	229.39	-4.5795
263	230.00	-4.4159
264	230.62	-4.2815
265	231.23	-4.1732
266	231.83	-4.0847
267	232.44	-4.0141
268	233.03	-3.9584
269	233.63	-3.9160
270	234.23	-3.8858
271	234.83	-3.8641
272	235.42	-3.8499
273	236.00	-3.8414
274	236.60	-3.8395
275	237.19	-3.8414
276	237.78	-3.8453
277	238.37	-3.8539
278	238.95	-3.8634
279	239.54	-3.8739
280	240.13	-3.8816
281	240.72	-3.8911
282	241.31	-3.9026
283	241.89	-3.9122
284	242.48	-3.9228
285	243.07	-3.9344
286	243.66	-3.9488
287	244.25	-3.9652
288	244.84	-3.9825
289	245.43	-3.9999
290	246.01	-4.0191
291	246.60	-4.0394
292	247.19	-4.0616
293	247.78	-4.0819
294	248.36	-4.1051
295	248.95	-4.1284
296	249.54	-4.1526
297	250.13	-4.1759
298	250.72	-4.2012
299	251.31	-4.2284
300	251.90	-4.2576
301	252.48	-4.2877
302	253.06	-4.3169
303	253.64	-4.3452
304	254.23	-4.3745
305	254.81	-4.4038
306	255.39	-4.4361
307	255.97	-4.4693
308	256.56	-4.5007
309	257.14	-4.5340
310	257.72	-4.5683
311	258.30	-4.6018
312	258.89	-4.6362
313	259.47	-4.6707
314	260.06	-4.7052
315	260.63	-4.7407
316	261.21	-4.7743
317	261.79	-4.8099
318	262.37	-4.8465
319	262.95	-4.8842
320	263.53	-4.9228
321	264.11	-4.9625
322	264.69	-5.0041
323	265.27	-5.0468
324	265.84	-5.0895
325	266.43	-5.1353
326	267.01	-5.1801
327	267.58	-5.2269
328	268.16	-5.2757
329	268.74	-5.3255
330	269.32	-5.3774
331	269.90	-5.4293
332	270.48	-5.4833
333	271.06	-5.5392
334	271.64	-5.5953
335	272.22	-5.6534
336	272.80	-5.7135
337	273.38	-5.7746
338	273.96	-5.8369
339	274.55	-5.9012
340	275.13	-5.9645
341	275.71	-6.0290
342	276.29	-6.0935
343	276.87	-6.1571
344	277.44	-6.2227
345	278.02	-6.2904
346	278.60	-6.3582
347	279.18	-6.4270
348	279.75	-6.4959
349	280.33	-6.5679
350	280.91	-6.6410
351	281.49	-6.7181
352	282.07	-6.7954
353	282.65	-6.8757
354	283.22	-6.9570
355	283.80	-7.0415
356	284.37	-7.1270
357	284.95	-7.2107
358	285.52	-7.2934
359	286.09	-7.3792
360	286.66	-7.4661
361	287.23	-7.5542
362	287.81	-7.6454
363	288.38	-7.7346
364	288.94	-7.8239
365	289.52	-7.9135
366	290.09	-8.0041
367	290.66	-8.0938
368	291.24	-8.1817
369	291.81	-8.2667
370	292.38	-8.3507
371	292.95	-8.4319
372	293.53	-8.5092
373	294.10	-8.5806
374	294.68	-8.6461
375	295.26	-8.7058
376	295.84	-8.7594
377	296.42	-8.8082
378	297.00	-8.8519
379	297.58	-8.8917
380	298.16	-8.9266
381	298.74	-8.9544
382	299.32	-8.9742
383	299.91	-8.9871
384	300.49	-8.9888
385	301.08	-8.9765
386	301.67	-8.9470
387	302.26	-8.8953
388	302.86	-8.8173
389	303.46	-8.7088
390	304.07	-8.5669
391	304.68	-8.3862
392	305.29	-8.1617
393	305.91	-7.8913
394	306.53	-7.5728
395	307.17	-7.2134
396	307.82	-6.8190
397	308.46	-6.3984
398	309.10	-5.9610
399	309.75	-5.5108
400	310.40	-5.0538
401	311.05	-4.5971
402	311.69	-4.1509
403	312.35	-3.7226
404	313.00	-3.3233
405	313.64	-2.9561
406	314.27	-2.6262
407	314.91	-2.3370
408	315.54	-2.0883
409	316.16	-1.8762
410	316.78	-1.6946
411	317.40	-1.5375
412	318.02	-1.4048
413	318.62	-1.2904
414	319.24	-1.1904
415	319.85	-1.1046
416	320.45	-1.0321
417	321.06	-0.9698
418	321.66	-0.9157
419	322.26	-0.8678
420	322.86	-0.8259
421	323.45	-0.7913
422	324.04	-0.7608
423	324.63	-0.7343
424	325.22	-0.7110
425	325.82	-0.6917
426	326.40	-0.6746
427	326.99	-0.6625
428	327.58	-0.6547
429	328.18	-0.6458
430	328.77	-0.6358
431	329.36	-0.6300
432	329.95	-0.6232
433	330.54	-0.6163
434	331.12	-0.6125
435	331.71	-0.6067
436	332.30	-0.5988
437	332.89	-0.5919
438	333.48	-0.5870
439	334.06	-0.5833
440	334.64	-0.5826
441	335.23	-0.5809
442	335.81	-0.5782
443	336.39	-0.5765
444	336.98	-0.5759
445	337.57	-0.5763
446	338.15	-0.5756
447	338.74	-0.5729
448	339.33	-0.5701
449	339.91	-0.5695
450	340.50	-0.5699
451	341.08	-0.5703
452	341.67	-0.5707
453	342.26	-0.5690
454	342.85	-0.5695
455	343.43	-0.5699
456	344.01	-0.5703
456.75	344.53	-0.5707
