time	Temp	HeatFlow
s	°C	mW
2	72.35	-3.3961
3	72.34	-2.6648
4	72.33	-2.0412
5	72.35	-1.5607
6	72.45	-1.2480
7	72.64	-1.1023
8	72.93	-1.1058
9	73.32	-1.2330
10	73.83	-1.4556
11	74.46	-1.7462
12	75.20	-2.0827
13	76.03	-2.4422
14	76.96	-2.8043
15	77.98	-3.1558
16	79.07	-3.4862
17	80.23	-3.7900
18	81.45	-4.0621
19	82.73	-4.3032
20.75	85.08	-4.6494
21.75	86.46	-4.8031
22.75	87.87	-4.9223
23.75	89.29	-4.9912
24.75	90.69	-4.9912
25.75	92.06	-4.9100
26.75	93.37	-4.7510
27.75	94.62	-4.5258
28.75	95.82	-4.2502
29.75	96.95	-3.9393
30.75	98.01	-3.6098
31.75	99.01	-3.2716
32.75	99.96	-2.9377
33.75	100.84	-2.6175
34.75	101.68	-2.3166
35.75	102.47	-2.0376
36.75	103.22	-1.7843
37.75	103.95	-1.5573
38.75	104.63	-1.3569
39.75	105.29	-1.1811
40.75	105.93	-1.0292
41.75	106.55	-0.9002
42.75	107.15	-0.7915
43.75	107.74	-0.7014
44.75	108.32	-0.6272
45.75	108.88	-0.5653
46.75	109.44	-0.5158
47.75	110.00	-0.4761
48.75	110.56	-0.4460
49.75	111.11	-0.4248
50.75	111.66	-0.4107
51.75	112.21	-0.4002
52.75	112.75	-0.3922
53.75	113.29	-0.3870
54.75	113.84	-0.3844
55.75	114.38	-0.3844
56.75	114.93	-0.3862
57.75	115.47	-0.3889
58.75	116.01	-0.3925
59.75	116.55	-0.3961
60.75	117.10	-0.4015
61.75	117.64	-0.4051
62.75	118.18	-0.4078
63.75	118.72	-0.4097
64.75	119.26	-0.4133
65.75	119.81	-0.4169
66.75	120.34	-0.4196
67.75	120.88	-0.4232
68.75	121.43	-0.4268
69.75	121.97	-0.4304
70.75	122.51	-0.4323
71.75	123.05	-0.4332
72.75	123.60	-0.4359
73.75	124.14	-0.4378
74.75	124.68	-0.4379
75.75	125.22	-0.4379
76.75	125.77	-0.4398
77.75	126.32	-0.4407
78.75	126.86	-0.4399
79.75	127.39	-0.4400
80.75	127.94	-0.4418
81.75	128.48	-0.4428
82.75	129.02	-0.4411
83.75	129.56	-0.4385
84.75	130.10	-0.4377
85.75	130.65	-0.4378
86.75	131.19	-0.4370
87.75	131.73	-0.4353
88.75	132.27	-0.4344
89.75	132.81	-0.4327
90.75	133.35	-0.4337
91.75	133.89	-0.4347
92.75	134.43	-0.4348
93.75	134.98	-0.4331
94.75	135.53	-0.4331
95.75	136.08	-0.4359
96.75	136.63	-0.4378
97.75	137.18	-0.4387
98.75	137.73	-0.4379
99.75	138.28	-0.4371
100.75	138.83	-0.4363
101.75	139.39	-0.4364
102.75	139.93	-0.4383
103.75	140.48	-0.4402
104.75	141.03	-0.4394
105.75	141.59	-0.4386
106.75	142.14	-0.4396
107.75	142.69	-0.4405
108.75	143.24	-0.4433
109.75	143.80	-0.4452
110.75	144.34	-0.4471
111.75	144.90	-0.4490
112.75	145.45	-0.4500
113.75	146.01	-0.4519
114.75	146.57	-0.4529
115.75	147.12	-0.4530
116.75	147.68	-0.4549
117.75	148.22	-0.4559
118.75	148.78	-0.4542
119.75	149.34	-0.4507
120.75	149.89	-0.4472
121.75	150.44	-0.4455
122.75	150.99	-0.4447
123.75	151.55	-0.4448
124.75	152.10	-0.4458
125.75	152.65	-0.4477
126.75	153.21	-0.4523
127.75	153.77	-0.4551
128.75	154.32	-0.4562
129.75	154.88	-0.4581
130.75	155.43	-0.4609
131.75	155.99	-0.4628
132.75	156.55	-0.4638
133.75	157.11	-0.4648
134.75	157.68	-0.4659
135.75	158.23	-0.4660
136.75	158.79	-0.4670
137.75	159.35	-0.4689
138.75	159.91	-0.4699
139.75	160.47	-0.4710
140.75	161.03	-0.4711
141.75	161.59	-0.4703
142.75	162.15	-0.4686
143.75	162.70	-0.4670
144.75	163.26	-0.4653
145.75	163.83	-0.4636
146.75	164.38	-0.4619
147.75	164.94	-0.4603
148.75	165.50	-0.4595
149.75	166.05	-0.4596
150.75	166.62	-0.4598
151.75	167.18	-0.4590
152.75	167.74	-0.4573
153.75	168.29	-0.4584
154.75	168.85	-0.4603
155.75	169.42	-0.4613
156.75	169.97	-0.4642
157.75	170.53	-0.4661
158.75	171.10	-0.4672
159.75	171.65	-0.4664
160.75	172.22	-0.4656
161.75	172.78	-0.4667
162.75	173.33	-0.4696
163.75	173.89	-0.4715
164.75	174.46	-0.4717
165.75	175.02	-0.4718
166.75	175.58	-0.4720
167.75	176.14	-0.4721
168.75	176.71	-0.4759
169.75	177.27	-0.4797
170.75	177.84	-0.4826
171.75	178.40	-0.4863
172.75	178.96	-0.4874
173.75	179.52	-0.4876
174.75	180.09	-0.4877
175.75	180.66	-0.4879
176.75	181.22	-0.4880
177.75	181.78	-0.4891
178.75	182.35	-0.4902
179.75	182.92	-0.4913
180.75	183.48	-0.4933
181.75	184.05	-0.4971
182.75	184.61	-0.5000
183.75	185.18	-0.5011
184.75	185.75	-0.5022
185.75	186.32	-0.5023
186.75	186.88	-0.5034
187.75	187.45	-0.5045
188.75	188.02	-0.5065
189.75	188.58	-0.5076
190.75	189.15	-0.5087
191.75	189.72	-0.5116
192.75	190.29	-0.5136
193.75	190.86	-0.5147
194.75	191.44	-0.5168
195.75	192.00	-0.5179
196.75	192.58	-0.5199
197.75	193.15	-0.5228
198.75	193.72	-0.5239
199.75	194.30	-0.5251
200.75	194.87	-0.5253
201.75	195.43	-0.5264
202.75	196.01	-0.5275
203.75	196.58	-0.5295
204.75	197.16	-0.5325
205.75	197.73	-0.5345
206.75	198.31	-0.5366
207.75	198.88	-0.5395
208.75	199.46	-0.5416
209.75	200.03	-0.5436
210.75	200.61	-0.5457
211.75	201.19	-0.5487
212.75	201.76	-0.5498
213.75	202.34	-0.5519
214.75	202.92	-0.5558
215.75	203.49	-0.5597
216.75	204.07	-0.5618
217.75	204.64	-0.5648
218.75	205.22	-0.5678
219.75	205.80	-0.5717
220.75	206.38	-0.5747
221.75	206.95	-0.5787
222.75	207.52	-0.5835
223.75	208.10	-0.5856
224.75	208.67	-0.5868
225.75	209.24	-0.5861
226.75	209.80	-0.5938
227.75	210.36	-0.6349
228.75	210.92	-0.7363
229.75	211.47	-0.9326
230.75	212.01	-1.2592
231.75	212.54	-1.6371
232.75	213.10	-1.8628
233.75	213.68	-1.8441
234.75	214.27	-1.7016
235.75	214.87	-1.5533
236.75	215.47	-1.4236
237.75	216.07	-1.3105
238.75	216.65	-1.2123
239.75	217.24	-1.1279
240.75	217.84	-1.0565
241.75	218.43	-0.9945
242.75	219.02	-0.9417
243.75	219.61	-0.8982
244.75	220.19	-0.8612
245.75	220.78	-0.8298
246.75	221.37	-0.8030
247.75	221.96	-0.7790
248.75	222.54	-0.7588
249.75	223.12	-0.7404
250.75	223.70	-0.7257
251.75	224.28	-0.7120
252.75	224.86	-0.6992
253.75	225.44	-0.6892
254.75	226.01	-0.6820
255.75	226.60	-0.6766
256.75	227.18	-0.6732
257.75	227.75	-0.6697
258.75	228.34	-0.6682
259.75	228.92	-0.6675
260.75	229.50	-0.6669
261.75	230.09	-0.6663
262.75	230.68	-0.6657
263.75	231.26	-0.6660
264.75	231.84	-0.6663
265.75	232.43	-0.6648
266.75	233.01	-0.6632
267.75	233.59	-0.6654
268.75	234.18	-0.6667
269.75	234.77	-0.6689
270.75	235.35	-0.6711
271.75	235.94	-0.6714
272.75	236.52	-0.6727
273.75	237.11	-0.6731
274.75	237.70	-0.6725
275.75	238.28	-0.6728
276.75	238.87	-0.6722
277.75	239.45	-0.6716
278.75	240.04	-0.6719
279.75	240.63	-0.6722
280.75	241.21	-0.6735
281.75	241.80	-0.6739
282.75	242.39	-0.6742
283.75	242.98	-0.6765
284.75	243.57	-0.6778
285.75	244.16	-0.6781
286.75	244.74	-0.6794
287.75	245.33	-0.6817
288.75	245.92	-0.6849
289.75	246.51	-0.6872
290.75	247.11	-0.6895
291.75	247.69	-0.6908
292.75	248.29	-0.6921
293.75	248.87	-0.6934
294.75	249.46	-0.6938
295.75	250.05	-0.6942
296.75	250.64	-0.6955
297.75	251.23	-0.6978
298.75	251.82	-0.7001
299.75	252.41	-0.7024
300.75	252.99	-0.7037
301.75	253.58	-0.7051
302.75	254.16	-0.7074
303.75	254.74	-0.7107
304.75	255.33	-0.7139
305.75	255.91	-0.7153
306.75	256.49	-0.7166
307.75	257.08	-0.7170
308.75	257.66	-0.7174
309.75	258.24	-0.7188
310.75	258.82	-0.7211
311.75	259.41	-0.7225
312.75	259.99	-0.7229
313.75	260.58	-0.7233
314.75	261.17	-0.7237
315.75	261.75	-0.7250
316.75	262.34	-0.7284
317.75	262.92	-0.7317
318.75	263.50	-0.7350
319.75	264.09	-0.7383
320.75	264.68	-0.7417
321.75	265.27	-0.7411
322.75	265.85	-0.7386
323.75	266.43	-0.7361
324.75	267.02	-0.7346
325.75	267.60	-0.7360
326.75	268.19	-0.7384
327.75	268.77	-0.7437
328.75	269.36	-0.7490
329.75	269.95	-0.7514
330.75	270.53	-0.7528
331.75	271.11	-0.7532
332.75	271.70	-0.7537
333.75	272.29	-0.7531
334.75	272.87	-0.7526
335.75	273.46	-0.7530
336.75	274.05	-0.7544
337.75	274.63	-0.7578
338.75	275.22	-0.7612
339.75	275.81	-0.7646
340.75	276.40	-0.7661
341.75	276.98	-0.7685
342.75	277.57	-0.7709
343.75	278.16	-0.7724
344.75	278.75	-0.7728
345.75	279.33	-0.7743
346.75	279.92	-0.7748
347.75	280.51	-0.7752
348.75	281.09	-0.7757
349.75	281.68	-0.7762
350.75	282.27	-0.7766
351.75	282.86	-0.7771
352.75	283.45	-0.7806
353.75	284.03	-0.7840
354.75	284.61	-0.7875
355.75	285.20	-0.7889
356.75	285.78	-0.7904
357.75	286.36	-0.7909
358.75	286.95	-0.7954
359.75	287.53	-0.7988
360.75	288.12	-0.7993
361.75	288.70	-0.8008
362.75	289.29	-0.8033
363.75	289.87	-0.8058
364.75	290.46	-0.8063
365.75	291.04	-0.8068
366.75	291.63	-0.8073
367.75	292.22	-0.8058
368.75	292.80	-0.8023
369.75	293.38	-0.8008
370.75	293.96	-0.8013
371.75	294.54	-0.8028
372.75	295.13	-0.8034
373.75	295.71	-0.8049
374.75	296.29	-0.8074
375.75	296.87	-0.8089
376.75	297.47	-0.8135
377.75	298.05	-0.8200
378.75	298.64	-0.8236
379.75	299.23	-0.8281
380.75	299.81	-0.8317
381.75	300.39	-0.8342
382.75	300.98	-0.8358
383.75	301.57	-0.8383
384.75	302.15	-0.8419
385.75	302.73	-0.8425
386.75	303.32	-0.8410
387.75	303.91	-0.8415
388.75	304.50	-0.8441
389.75	305.08	-0.8477
390.75	305.67	-0.8523
391.75	306.26	-0.8549
392.75	306.85	-0.8586
393.75	307.44	-0.8601
394.75	308.02	-0.8607
395.75	308.61	-0.8613
396.75	309.19	-0.8608
397.75	309.78	-0.8614
398.75	310.37	-0.8640
399.75	310.95	-0.8687
400.75	311.55	-0.8703
401.75	312.14	-0.8719
402.75	312.73	-0.8735
403.75	313.31	-0.8762
404.75	313.89	-0.8778
405.75	314.48	-0.8794
406.75	315.07	-0.8810
407.75	315.66	-0.8837
408.75	316.25	-0.8884
409.75	316.84	-0.8910
410.75	317.43	-0.8927
411.75	318.01	-0.8933
412.75	318.61	-0.8929
413.75	319.19	-0.8935
414.75	319.78	-0.8972
415.75	320.37	-0.8999
416.75	320.96	-0.9026
417.75	321.55	-0.9053
418.75	322.13	-0.9080
419.75	322.71	-0.9096
420.75	323.30	-0.9123
421.75	323.88	-0.9140
422.75	324.46	-0.9156
423.75	325.04	-0.9173
424.75	325.63	-0.9200
425.75	326.21	-0.9207
426.75	326.79	-0.9244
427.75	327.38	-0.9282
428.75	327.96	-0.9320
429.75	328.55	-0.9368
430.75	329.13	-0.9416
431.75	329.71	-0.9423
432.75	330.29	-0.9419
433.75	330.87	-0.9415
434.75	331.45	-0.9432
435.75	332.03	-0.9460
436.75	332.62	-0.9508
437.75	333.20	-0.9568
438.75	333.78	-0.9627
439.75	334.37	-0.9676
440.75	334.96	-0.9714
441.75	335.54	-0.9742
442.75	336.12	-0.9759
443.75	336.71	-0.9777
444.75	337.29	-0.9795
445.75	337.88	-0.9802
446.75	338.46	-0.9819
447.75	339.04	-0.9868
448.75	339.63	-0.9928
449.75	340.22	-0.9999
450.75	340.80	-1.0080
451.75	341.39	-1.0162
452.75	341.97	-1.0222
453.75	342.56	-1.0283
454.75	343.15	-1.0333
455.75	343.74	-1.0383
456.75	344.33	-1.0422
457.75	344.91	-1.0451
458.75	345.50	-1.0480
459.75	346.09	-1.0498
460.75	346.67	-1.0538
461.75	347.25	-1.0588
462.75	347.84	-1.0637
463.75	348.43	-1.0679
464.75	349.01	-1.0711
465.75	349.60	-1.0754
466.75	350.19	-1.0797
467.75	350.78	-1.0818
468.75	351.36	-1.0840
469.75	351.94	-1.0850
470.75	352.53	-1.0861
471.75	353.12	-1.0882
472.75	353.70	-1.0914
473.75	354.29	-1.0957
474.75	354.87	-1.1021
475.75	355.46	-1.1096
476.75	356.05	-1.1181
477.75	356.64	-1.1277
478.75	357.23	-1.1362
479.75	357.81	-1.1448
480.75	358.40	-1.1544
481.75	359.00	-1.1650
482.75	359.59	-1.1757
483.75	360.18	-1.1864
484.75	360.78	-1.1970
485.75	361.37	-1.2066
486.75	361.96	-1.2141
487.75	362.56	-1.2226
488.75	363.16	-1.2312
489.75	363.75	-1.2376
490.75	364.35	-1.2429
491.75	364.94	-1.2493
492.75	365.53	-1.2536
493.75	366.12	-1.2579
494.75	366.71	-1.2632
495.75	367.30	-1.2696
496.75	367.90	-1.2760
497.75	368.49	-1.2835
498.75	369.08	-1.2888
499.75	369.67	-1.2963
500.75	370.25	-1.3048
501.75	370.84	-1.3144
502.75	371.44	-1.3229
503.75	372.03	-1.3315
504.75	372.62	-1.3389
505.75	373.21	-1.3485
506.75	373.80	-1.3581
507.75	374.39	-1.3667
508.75	374.99	-1.3763
509.75	375.58	-1.3880
510.75	376.18	-1.3997
511.75	376.77	-1.4104
512.75	377.36	-1.4200
513.75	377.94	-1.4296
514.75	378.53	-1.4392
515.75	379.12	-1.4510
516.75	379.72	-1.4648
517.75	380.31	-1.4776
518.75	380.91	-1.4894
519.75	381.49	-1.5022
520.75	382.07	-1.5150
521.75	382.66	-1.5278
522.75	383.26	-1.5416
523.75	383.85	-1.5555
524.75	384.44	-1.5672
525.75	385.03	-1.5811
526.75	385.62	-1.5971
527.75	386.21	-1.6142
528.75	386.80	-1.6334
529.75	387.39	-1.6505
530.75	387.98	-1.6686
531.75	388.57	-1.6867
532.75	389.16	-1.7049
533.75	389.75	-1.7230
534.75	390.34	-1.7411
535.75	390.94	-1.7604
536.75	391.52	-1.7785
537.75	392.11	-1.7977
538.75	392.70	-1.8180
539.75	393.29	-1.8404
540.75	393.88	-1.8628
541.75	394.47	-1.8862
542.75	395.06	-1.9119
543.75	395.65	-1.9385
544.75	396.24	-1.9641
545.75	396.83	-1.9887
546.75	397.41	-2.0143
547.75	398.00	-2.0431
548.75	398.59	-2.0708
549.75	399.18	-2.0996
550.75	399.77	-2.1295
551.75	400.36	-2.1615
552.75	400.95	-2.1967
553.75	401.53	-2.2340
554.75	402.12	-2.2725
555.75	402.72	-2.3119
556.75	403.31	-2.3482
557.75	403.89	-2.3845
558.75	404.48	-2.4240
559.75	405.07	-2.4645
560.75	405.66	-2.5082
561.75	406.24	-2.5530
562.75	406.83	-2.5957
563.75	407.41	-2.6405
564.75	408.00	-2.6896
565.75	408.59	-2.7419
566.75	409.18	-2.7984
567.75	409.76	-2.8571
568.75	410.34	-2.9158
569.75	410.93	-2.9777
570.75	411.52	-3.0438
571.75	412.09	-3.1121
572.75	412.68	-3.1836
573.75	413.26	-3.2604
574.75	413.84	-3.3415
575.75	414.43	-3.4247
576.75	415.01	-3.5111
577.75	415.59	-3.6007
578.75	416.17	-3.6925
579.75	416.75	-3.7896
580.75	417.33	-3.8930
581.75	417.92	-4.0019
582.75	418.50	-4.1192
583.75	419.09	-4.2409
584.75	419.66	-4.3699
585.75	420.24	-4.5054
586.75	420.82	-4.6452
587.75	421.41	-4.7914
588.75	421.99	-4.9461
589.75	422.56	-5.1061
590.75	423.14	-5.2736
591.75	423.71	-5.4486
592.75	424.29	-5.6310
593.75	424.86	-5.8252
594.75	425.43	-6.0289
595.75	426.00	-6.2434
596.75	426.57	-6.4706
597.75	427.13	-6.7107
598.75	427.70	-6.9657
599.75	428.26	-7.2345
600.75	428.82	-7.5183
601.75	429.38	-7.8181
602.75	429.94	-8.1350
603.75	430.49	-8.4689
604.75	431.05	-8.8220
605.75	431.60	-9.1976
606.75	432.15	-9.5923
607.75	432.69	-10.009
608.75	433.23	-10.449
609.75	433.77	-10.913
610.75	434.32	-11.404
611.75	434.85	-11.923
612.75	435.38	-12.470
613.75	435.91	-13.045
614.75	436.43	-13.653
615.75	436.95	-14.296
616.75	437.46	-14.973
617.75	437.98	-15.680
618.75	438.48	-16.417
619.75	438.98	-17.185
620.75	439.48	-17.985
621.75	439.98	-18.818
622.75	440.47	-19.681
623.75	440.96	-20.583
624.75	441.44	-21.526
625.75	441.92	-22.506
626.75	442.39	-23.523
627.75	442.84	-24.578
628.75	443.30	-25.677
629.75	443.76	-26.818
630.75	444.20	-28.017
631.75	444.64	-29.288
632.75	445.07	-30.628
633.75	445.49	-32.029
634.75	445.91	-33.483
635.75	446.31	-34.995
636.75	446.71	-36.563
637.75	447.11	-38.168
638.75	447.49	-39.780
639.75	447.87	-41.422
640.75	448.26	-43.073
641.75	448.65	-44.564
642.75	449.13	-45.208
643.75	449.84	-43.420
644.75	450.90	-38.565
645.75	452.12	-32.688
646.75	453.29	-27.578
647.75	454.38	-23.305
648.75	455.41	-19.734
649.75	456.38	-16.744
650.75	457.30	-14.234
651.75	458.17	-12.125
652.75	459.02	-10.355
653.75	459.83	-8.8668
654.75	460.60	-7.6165
655.75	461.36	-6.5645
656.75	462.09	-5.6790
657.75	462.80	-4.9354
658.75	463.50	-4.3102
659.75	464.19	-3.7842
660.75	464.87	-3.3415
661.75	465.53	-2.9691
662.75	466.18	-2.6565
663.75	466.83	-2.3951
664.75	467.48	-2.1764
665.75	468.12	-1.9940
666.75	468.75	-1.8404
667.75	469.38	-1.7102
668.75	470.01	-1.6003
669.75	470.63	-1.5064
670.75	471.25	-1.4243
671.75	471.86	-1.3539
672.75	472.48	-1.2952
673.75	473.09	-1.2483
674.75	473.70	-1.2066
675.75	474.31	-1.1682
676.75	474.92	-1.1384
677.75	475.53	-1.1138
678.75	476.13	-1.0925
679.75	476.74	-1.0733
680.75	477.34	-1.0583
681.75	477.94	-1.0466
682.75	478.55	-1.0349
683.75	479.15	-1.0231
684.75	479.76	-1.0125
685.75	480.36	-1.0061
686.75	480.97	-0.9997
687.75	481.57	-0.9943
688.75	482.16	-0.9890
689.75	482.77	-0.9847
690.75	483.37	-0.9794
691.75	483.97	-0.9730
692.75	484.57	-0.9677
693.75	485.17	-0.9634
694.75	485.77	-0.9602
695.75	486.38	-0.9581
696.75	486.97	-0.9549
697.75	487.57	-0.9517
698.75	488.17	-0.9485
699.75	488.77	-0.9453
700.75	489.37	-0.9431
701.75	489.97	-0.9410
702.75	490.57	-0.9367
703.75	491.18	-0.9325
704.75	491.77	-0.9282
705.75	492.38	-0.9218
706.75	492.98	-0.9154
707.75	493.58	-0.9111
708.75	494.18	-0.9068
709.75	494.77	-0.9047
710.75	495.37	-0.9015
711.75	495.98	-0.8972
712.75	496.57	-0.8919
713.75	497.17	-0.8887
714.75	497.77	-0.8855
715.75	498.37	-0.8834
716.75	498.97	-0.8855
717.75	499.57	-0.8866
718.75	500.17	-0.8876
719.75	500.77	-0.8866
720.75	501.37	-0.8834
721.75	501.97	-0.8812
722.75	502.57	-0.8802
723.75	503.17	-0.8791
724.75	503.77	-0.8759
725.75	504.37	-0.8727
726.75	504.97	-0.8695
727.75	505.57	-0.8663
728.75	506.17	-0.8631
729.75	506.77	-0.8588
730.75	507.37	-0.8546
731.75	507.96	-0.8524
732.75	508.56	-0.8503
733.75	509.15	-0.8471
734.75	509.75	-0.8428
735.75	510.35	-0.8386
736.75	510.95	-0.8343
737.75	511.54	-0.8322
738.75	512.14	-0.8290
739.75	512.74	-0.8247
740.75	513.34	-0.8204
741.75	513.95	-0.8151
742.75	514.55	-0.8108
743.75	515.14	-0.8076
744.75	515.75	-0.8044
745.75	516.35	-0.7980
746.75	516.95	-0.7916
747.75	517.56	-0.7831
748.75	518.16	-0.7746
749.75	518.76	-0.7660
750.75	519.35	-0.7586
751.75	519.95	-0.7522
752.75	520.56	-0.7447
753.75	521.16	-0.7372
754.75	521.76	-0.7287
755.75	522.35	-0.7201
756.75	522.95	-0.7127
757.75	523.55	-0.7063
758.75	524.15	-0.6988
759.75	524.75	-0.6913
760.75	525.35	-0.6849
761.75	525.95	-0.6785
762.75	526.55	-0.6721
763.75	527.15	-0.6657
764.75	527.75	-0.6593
765.75	528.34	-0.6529
766.75	528.95	-0.6465
767.75	529.55	-0.6380
768.75	530.15	-0.6305
769.75	530.75	-0.6241
770.75	531.35	-0.6167
771.75	531.95	-0.6092
772.75	532.54	-0.5985
773.75	533.14	-0.5911
774.75	533.74	-0.5836
775.75	534.34	-0.5761
776.75	534.94	-0.5708
777.75	535.54	-0.5654
778.75	536.14	-0.5590
779.75	536.74	-0.5516
780.75	537.34	-0.5441
781.5	537.86	-0.5388
